#mackey glass with tau = 17, n = 10; beta = 0.2; gamma = 0.1; initial conds = 0.1
0.000000000000000e+00    -7.162978694734611e-01
1.000000000000001e+00    -7.116321083299250e-01
1.999999999999891e+00    -7.073555305169167e-01
2.999999999999781e+00    -7.034407578932513e-01
3.999999999999670e+00    -6.998613444083103e-01
5.000000000000004e+00    -6.965919692365732e-01
6.000000000000338e+00    -6.936085664376723e-01
7.000000000000672e+00    -6.908884036820218e-01
8.000000000001005e+00    -6.884101206774712e-01
9.000000000000451e+00    -6.861537362089228e-01
9.999999999999897e+00    -6.841006311782833e-01
1.099999999999934e+01    -6.822335137070464e-01
1.199999999999879e+01    -6.805363712283625e-01
1.299999999999823e+01    -6.789944135337632e-01
1.399999999999768e+01    -6.775940099333430e-01
1.499999999999713e+01    -6.763226230179775e-01
1.599999999999657e+01    -6.751687409595106e-01
1.699999999999779e+01    -6.741218098325991e-01
1.799999999999902e+01    -6.726600531525716e-01
1.900000000000024e+01    -6.703856353659414e-01
2.000000000000146e+01    -6.674534512215112e-01
2.100000000000268e+01    -6.639946323874955e-01
2.200000000000390e+01    -6.601209227280338e-01
2.300000000000513e+01    -6.559279948557137e-01
2.400000000000635e+01    -6.514979975166832e-01
2.500000000000757e+01    -6.469015430465109e-01
2.600000000000879e+01    -6.421992861197902e-01
2.700000000001002e+01    -6.374432029542505e-01
2.800000000001124e+01    -6.326776495572282e-01
2.900000000001246e+01    -6.279402553640513e-01
3.000000000001368e+01    -6.232626924652688e-01
3.100000000001490e+01    -6.186713489325141e-01
3.200000000001612e+01    -6.141879263510829e-01
3.300000000001379e+01    -6.098299756829993e-01
3.400000000001146e+01    -6.056113813736627e-01
3.500000000000913e+01    -6.015033148238355e-01
3.600000000000680e+01    -5.973366093134233e-01
3.700000000000447e+01    -5.929515694464423e-01
3.800000000000214e+01    -5.882334332164618e-01
3.899999999999981e+01    -5.831039046028691e-01
3.999999999999748e+01    -5.775139862693470e-01
4.099999999999515e+01    -5.714380399742108e-01
4.199999999999282e+01    -5.648689306700067e-01
4.299999999999049e+01    -5.578140863943380e-01
4.399999999998816e+01    -5.502923090776443e-01
4.499999999998582e+01    -5.423311881186983e-01
4.599999999998349e+01    -5.339649909497989e-01
4.699999999998116e+01    -5.252329281402761e-01
4.799999999997883e+01    -5.161777123213823e-01
4.899999999997650e+01    -5.068443491374732e-01
4.999999999997417e+01    -4.972791141119893e-01
5.099999999997184e+01    -4.875286817928421e-01
5.199999999996951e+01    -4.776370072825707e-01
5.299999999996718e+01    -4.676210398011367e-01
5.399999999996485e+01    -4.574559440845478e-01
5.499999999996252e+01    -4.470870658733849e-01
5.599999999996019e+01    -4.364416416514639e-01
5.699999999995786e+01    -4.254379690940885e-01
5.799999999995553e+01    -4.139924374936269e-01
5.899999999995320e+01    -4.020247890624286e-01
5.999999999995087e+01    -3.894619488363442e-01
6.099999999994854e+01    -3.762407207066755e-01
6.199999999994620e+01    -3.623096021112810e-01
6.299999999994387e+01    -3.476299236051215e-01
6.399999999994154e+01    -3.321764751585149e-01
6.499999999994631e+01    -3.159377410296693e-01
6.599999999995109e+01    -2.989158309290643e-01
6.699999999995586e+01    -2.811261676213165e-01
6.799999999996064e+01    -2.625969701468241e-01
6.899999999996541e+01    -2.433684424433231e-01
6.999999999997019e+01    -2.234890811694130e-01
7.099999999997496e+01    -2.030065718312769e-01
7.199999999997974e+01    -1.819600371975286e-01
7.299999999998451e+01    -1.603761840891720e-01
7.399999999998929e+01    -1.382685967379448e-01
7.499999999999406e+01    -1.156394676800423e-01
7.599999999999883e+01    -9.248320843580837e-02
7.700000000000361e+01    -6.879151788772576e-02
7.800000000000838e+01    -4.455960863157073e-02
7.900000000001316e+01    -1.979339786338592e-02
8.000000000001793e+01    5.482447399535623e-03
8.100000000002271e+01    3.121567187469182e-02
8.200000000002748e+01    5.731686209280265e-02
8.300000000003226e+01    8.364927704555573e-02
8.400000000003703e+01    1.100183735404125e-01
8.500000000004181e+01    1.361615922495069e-01
8.600000000004658e+01    1.617393551003169e-01
8.700000000005136e+01    1.863287435255554e-01
8.800000000005613e+01    2.094216286119781e-01
8.900000000006091e+01    2.304279370211407e-01
9.000000000006568e+01    2.486838532188159e-01
9.100000000007046e+01    2.634650625494690e-01
9.200000000007523e+01    2.740057683179520e-01
9.300000000008001e+01    2.795249754728671e-01
9.400000000008478e+01    2.792622516499204e-01
9.500000000008956e+01    2.725254074434166e-01
9.600000000009433e+01    2.587515437332255e-01
9.700000000009911e+01    2.375798677100572e-01
9.800000000010388e+01    2.089292326245535e-01
9.900000000010866e+01    1.730665007004310e-01
1.000000000001134e+02    1.306464753036726e-01
1.010000000001182e+02    8.270442796417103e-02
1.020000000001230e+02    3.059102313273776e-02
1.030000000001278e+02    -2.414468936714929e-02
1.040000000001325e+02    -7.990196969719171e-02
1.050000000001373e+02    -1.351732594383728e-01
1.060000000001421e+02    -1.886579724277467e-01
1.070000000001469e+02    -2.393277132149360e-01
1.080000000001516e+02    -2.864404422821045e-01
1.090000000001564e+02    -3.295126967194020e-01
1.100000000001612e+02    -3.682638097073640e-01
1.110000000001660e+02    -4.025446705641346e-01
1.120000000001707e+02    -4.322583657622415e-01
1.130000000001755e+02    -4.572734122882916e-01
1.140000000001803e+02    -4.773238147792310e-01
1.150000000001851e+02    -4.918855134100121e-01
1.160000000001898e+02    -5.000208299572880e-01
1.170000000001946e+02    -5.002063605333209e-01
1.180000000001994e+02    -4.902396482179773e-01
1.190000000002042e+02    -4.674898470806250e-01
1.200000000002089e+02    -4.299039063711450e-01
1.210000000002137e+02    -3.777954434810297e-01
1.220000000002185e+02    -3.151883456479735e-01
1.230000000002233e+02    -2.489653924122006e-01
1.240000000002280e+02    -1.861599870885005e-01
1.250000000002328e+02    -1.317207015962366e-01
1.260000000002376e+02    -8.800087214759400e-02
1.270000000002424e+02    -5.538208948654761e-02
1.280000000002471e+02    -3.310109027055715e-02
1.290000000002519e+02    -1.984899804702005e-02
1.300000000002567e+02    -1.409885721532253e-02
1.310000000002615e+02    -1.424040572491527e-02
1.320000000002662e+02    -1.859827473096274e-02
1.330000000002710e+02    -2.538050447171072e-02
1.340000000002758e+02    -3.258561479581525e-02
1.350000000002806e+02    -3.790332030255073e-02
1.360000000002853e+02    -3.868880374752780e-02
1.370000000002901e+02    -3.216619339272908e-02
1.380000000002949e+02    -1.604690646943614e-02
1.390000000002997e+02    1.038207877310480e-02
1.400000000003044e+02    4.496347187016177e-02
1.410000000003092e+02    8.210325651768727e-02
1.420000000003140e+02    1.144938192099723e-01
1.430000000003187e+02    1.367664906427394e-01
1.440000000003235e+02    1.476571522025634e-01
1.450000000003283e+02    1.491407657206961e-01
1.460000000003331e+02    1.444904853604572e-01
1.470000000003378e+02    1.369489810049846e-01
1.480000000003426e+02    1.291578630162122e-01
1.490000000003474e+02    1.229807446124717e-01
1.500000000003522e+02    1.194629926106547e-01
1.510000000003569e+02    1.188297036193500e-01
1.520000000003617e+02    1.205021410056410e-01
1.530000000003665e+02    1.231243749523716e-01
1.540000000003713e+02    1.245711947266757e-01
1.550000000003760e+02    1.219356058845213e-01
1.560000000003808e+02    1.117082939917200e-01
1.570000000003856e+02    9.070722568134906e-02
1.580000000003904e+02    5.793037516797321e-02
1.590000000003951e+02    1.576242419409351e-02
1.600000000003999e+02    -3.117690172868566e-02
1.610000000004047e+02    -7.827356978160051e-02
1.620000000004095e+02    -1.221859091788932e-01
1.630000000004142e+02    -1.610070116164441e-01
1.640000000004190e+02    -1.940127013082636e-01
1.650000000004238e+02    -2.213665856190560e-01
1.660000000004286e+02    -2.438493970183197e-01
1.670000000004333e+02    -2.625924729704370e-01
1.680000000004381e+02    -2.788053613220503e-01
1.690000000004429e+02    -2.935148793222480e-01
1.700000000004477e+02    -3.073457629452863e-01
1.710000000004524e+02    -3.203601875080988e-01
1.720000000004572e+02    -3.319370826343523e-01
1.730000000004620e+02    -3.406416826906280e-01
1.740000000004668e+02    -3.440809863519168e-01
1.750000000004715e+02    -3.389435225270593e-01
1.760000000004763e+02    -3.217013622667297e-01
1.770000000004811e+02    -2.902740559923834e-01
1.780000000004859e+02    -2.457927072987133e-01
1.790000000004906e+02    -1.926610755233548e-01
1.800000000004954e+02    -1.365530069748158e-01
1.810000000005002e+02    -8.219193004483871e-02
1.820000000005050e+02    -3.242680170164824e-02
1.830000000005097e+02    1.153880675176103e-02
1.840000000005145e+02    4.952308637471202e-02
1.850000000005193e+02    8.182300790190286e-02
1.860000000005241e+02    1.088832665892727e-01
1.870000000005288e+02    1.311527092477356e-01
1.880000000005336e+02    1.490698846610192e-01
1.890000000005384e+02    1.631294235180309e-01
1.900000000005432e+02    1.740000278470714e-01
1.910000000005479e+02    1.826752709534427e-01
1.920000000005527e+02    1.906118186443899e-01
1.930000000005575e+02    1.997116446425418e-01
1.940000000005623e+02    2.118792740498563e-01
1.950000000005670e+02    2.279536428170218e-01
1.960000000005718e+02    2.463181694880640e-01
1.970000000005766e+02    2.623004215513538e-01
1.980000000005814e+02    2.696629666418070e-01
1.990000000005861e+02    2.636562841864838e-01
2.000000000005909e+02    2.429476225086700e-01
2.010000000005957e+02    2.091524003091146e-01
2.020000000006005e+02    1.653324075123742e-01
2.030000000006052e+02    1.148356001086954e-01
2.040000000006100e+02    6.071992255749134e-02
2.050000000006148e+02    5.532427666859139e-03
2.060000000006196e+02    -4.875316345003270e-02
2.070000000006243e+02    -1.007359391030632e-01
2.080000000006291e+02    -1.495665575087497e-01
2.090000000006339e+02    -1.949237934595548e-01
2.100000000006387e+02    -2.369786749938957e-01
2.110000000006434e+02    -2.762872431734633e-01
2.120000000006482e+02    -3.135277612748932e-01
2.130000000006530e+02    -3.490994143025687e-01
2.140000000006578e+02    -3.828096099524156e-01
2.150000000006625e+02    -4.138980994761238e-01
2.160000000006673e+02    -4.413140344593799e-01
2.170000000006721e+02    -4.639110299095563e-01
2.180000000006769e+02    -4.803922098270423e-01
2.190000000006816e+02    -4.890947300611032e-01
2.200000000006864e+02    -4.878080700712757e-01
2.210000000006912e+02    -4.739028388279385e-01
2.220000000006960e+02    -4.451170994898297e-01
2.230000000007007e+02    -4.010296248246358e-01
2.240000000007055e+02    -3.443125440096562e-01
2.250000000007103e+02    -2.804087106627153e-01
2.260000000007151e+02    -2.156287916644692e-01
2.270000000007198e+02    -1.552161540159485e-01
2.280000000007246e+02    -1.025401953672293e-01
2.290000000007294e+02    -5.928684783840656e-02
2.300000000007342e+02    -2.598434573503726e-02
2.310000000007389e+02    -2.421069088482455e-03
2.320000000007437e+02    1.213095008612798e-02
2.330000000007485e+02    1.879742376827302e-02
2.340000000007533e+02    1.902149126334710e-02
2.350000000007580e+02    1.452808697129863e-02
2.360000000007628e+02    7.351678911431275e-03
2.370000000007676e+02    -9.295314273190495e-05
2.380000000007724e+02    -4.979852579764775e-03
2.390000000007771e+02    -4.235746777443435e-03
2.400000000007819e+02    4.938179102139157e-03
2.410000000007867e+02    2.417071777894927e-02
2.420000000007915e+02    5.283317415823226e-02
2.430000000007962e+02    8.713339722778220e-02
2.440000000008010e+02    1.203595580300140e-01
2.450000000008058e+02    1.453462956693754e-01
2.460000000008106e+02    1.578444795613866e-01
2.470000000008153e+02    1.577528708594154e-01
2.480000000008201e+02    1.478193201237290e-01
2.490000000008249e+02    1.317988725199452e-01
2.500000000008297e+02    1.132881971074043e-01
2.510000000008344e+02    9.522595290943398e-02
2.520000000008392e+02    7.972041152372734e-02
2.530000000008440e+02    6.797224957742862e-02
2.540000000008488e+02    6.020327473679327e-02
2.550000000008535e+02    5.559546552022405e-02
2.560000000008583e+02    5.228544962485522e-02
2.570000000008346e+02    4.746073402340574e-02
2.580000000008110e+02    3.764969436177770e-02
2.590000000007873e+02    1.947276386173775e-02
2.600000000007637e+02    -8.919003891530860e-03
2.610000000007400e+02    -4.645776127628760e-02
2.620000000007164e+02    -8.939744938583451e-02
2.630000000006928e+02    -1.331346646839198e-01
2.640000000006691e+02    -1.737933989709933e-01
2.650000000006455e+02    -2.087308100725410e-01
2.660000000006218e+02    -2.364411489219453e-01
2.670000000005982e+02    -2.563731588242116e-01
2.680000000005745e+02    -2.688051960736894e-01
2.690000000005509e+02    -2.747218114283542e-01
2.700000000005272e+02    -2.756101590758930e-01
2.710000000005036e+02    -2.731521853288899e-01
2.720000000004799e+02    -2.688498963081601e-01
2.730000000004563e+02    -2.636446877372917e-01
2.740000000004326e+02    -2.575839724822438e-01
2.750000000004090e+02    -2.495755147060820e-01
2.760000000003853e+02    -2.373098752108450e-01
2.770000000003617e+02    -2.176221151962935e-01
2.780000000003380e+02    -1.877615605580983e-01
2.790000000003144e+02    -1.474276765140476e-01
2.800000000002908e+02    -9.983272807561458e-02
2.810000000002671e+02    -5.022713074731822e-02
2.820000000002435e+02    -3.251966169585026e-03
2.830000000002198e+02    3.851982012587024e-02
2.840000000001962e+02    7.447721915500539e-02
2.850000000001725e+02    1.052112035954043e-01
2.860000000001489e+02    1.317892893836698e-01
2.870000000001252e+02    1.552764608658498e-01
2.880000000001016e+02    1.764978694917640e-01
2.890000000000779e+02    1.959857805454358e-01
2.900000000000543e+02    2.140445138455263e-01
2.910000000000306e+02    2.308695502869781e-01
2.920000000000070e+02    2.466676093955695e-01
2.929999999999833e+02    2.617253957934929e-01
2.939999999999597e+02    2.763253778150287e-01
2.949999999999361e+02    2.903056629376816e-01
2.959999999999124e+02    3.021405232719062e-01
2.969999999998888e+02    3.081786563644585e-01
2.979999999998651e+02    3.035882614112889e-01
2.989999999998415e+02    2.850805119088785e-01
2.999999999998178e+02    2.526254749231706e-01
3.009999999997942e+02    2.086848047524492e-01
3.019999999997705e+02    1.565795058941940e-01
3.029999999997469e+02    9.944396720724712e-02
3.039999999997232e+02    3.985966878537524e-02
3.049999999996996e+02    -2.016821387067741e-02
3.059999999996759e+02    -7.912702766053789e-02
3.069999999996523e+02    -1.359075252697124e-01
3.079999999996286e+02    -1.897373781576361e-01
3.089999999996050e+02    -2.401333156677708e-01
3.099999999995813e+02    -2.868588756618745e-01
3.109999999995577e+02    -3.298735030427521e-01
3.119999999995341e+02    -3.692552592717305e-01
3.129999999995104e+02    -4.050818886876058e-01
3.139999999994868e+02    -4.372904602087937e-01
3.149999999994631e+02    -4.655856972459403e-01
3.159999999994395e+02    -4.894264717000403e-01
3.169999999994158e+02    -5.080014345940025e-01
3.179999999993922e+02    -5.200978587124003e-01
3.189999999993685e+02    -5.238865788006517e-01
3.199999999993449e+02    -5.167884202331477e-01
3.209999999993212e+02    -4.957804026181008e-01
3.219999999992976e+02    -4.586125298672214e-01
3.229999999992739e+02    -4.058107158424925e-01
3.239999999992503e+02    -3.418976141753327e-01
3.249999999992266e+02    -2.741422707280319e-01
3.259999999992030e+02    -2.096903481197770e-01
3.269999999991794e+02    -1.534948496429203e-01
3.279999999991557e+02    -1.079742917381932e-01
3.289999999991321e+02    -7.367220491131772e-02
3.299999999991084e+02    -5.005024146201226e-02
3.309999999990848e+02    -3.603843826414641e-02
3.319999999990611e+02    -3.031343105331228e-02
3.329999999990375e+02    -3.139553251069957e-02
3.339999999990138e+02    -3.765007164581362e-02
3.349999999989902e+02    -4.723081093535912e-02
3.359999999989665e+02    -5.797730843564253e-02
3.369999999989429e+02    -6.729987144480616e-02
3.379999999989192e+02    -7.215644110624400e-02
3.389999999988956e+02    -6.931314347603235e-02
3.399999999988719e+02    -5.605359941193197e-02
3.409999999988483e+02    -3.125908857557146e-02
3.419999999988246e+02    3.459902767898674e-03
3.429999999988010e+02    4.316785786512280e-02
3.439999999987774e+02    8.074305832070615e-02
3.449999999987537e+02    1.100571453917372e-01
3.459999999987301e+02    1.286229224794016e-01
3.469999999987064e+02    1.375063673791913e-01
3.479999999986828e+02    1.396259019014715e-01
3.489999999986591e+02    1.382651419390222e-01
3.499999999986355e+02    1.362931844629417e-01
3.509999999986118e+02    1.358417408733018e-01
3.519999999985882e+02    1.381761838888369e-01
3.529999999985645e+02    1.436523840817483e-01
3.539999999985409e+02    1.517512029264618e-01
3.549999999985172e+02    1.611911806083045e-01
3.559999999984936e+02    1.700474231141343e-01
3.569999999984699e+02    1.757410039567210e-01
3.579999999984463e+02    1.749189696419439e-01
3.589999999984227e+02    1.637695771855650e-01
3.599999999983990e+02    1.395896456486686e-01
3.609999999983754e+02    1.029022636851488e-01
3.619999999983517e+02    5.757287069445588e-02
3.629999999983281e+02    8.630694641793325e-03
3.639999999983044e+02    -3.972485416092259e-02
3.649999999982808e+02    -8.480214604050869e-02
3.659999999982571e+02    -1.253221445551502e-01
3.669999999982335e+02    -1.611108801242832e-01
3.679999999982098e+02    -1.927650895710147e-01
3.689999999981862e+02    -2.213118918984626e-01
3.699999999981625e+02    -2.478696834457642e-01
3.709999999981389e+02    -2.733481063856034e-01
3.719999999981152e+02    -2.982431131959142e-01
3.729999999980916e+02    -3.225575655629097e-01
3.739999999980679e+02    -3.458113371891680e-01
3.749999999980443e+02    -3.670481442661166e-01
3.759999999980207e+02    -3.847592841500196e-01
3.769999999979970e+02    -3.967443339671662e-01
3.779999999979734e+02    -4.000852034683692e-01
3.789999999979497e+02    -3.915429493308210e-01
3.799999999979261e+02    -3.686305983644894e-01
3.809999999979024e+02    -3.310792020441229e-01
3.819999999978788e+02    -2.815797900841313e-01
3.829999999978551e+02    -2.249167986470894e-01
3.839999999978315e+02    -1.661732211938860e-01
3.849999999978078e+02    -1.093904162526104e-01
3.859999999977842e+02    -5.719791980789026e-02
3.869999999977605e+02    -1.106234709062537e-02
3.879999999977369e+02    2.831487606671059e-02
3.889999999977132e+02    6.069579616644034e-02
3.899999999976896e+02    8.614857403767760e-02
3.909999999976660e+02    1.049954625966606e-01
3.919999999976423e+02    1.178198684159321e-01
3.929999999976187e+02    1.255147586598480e-01
3.939999999975950e+02    1.293743564302681e-01
3.949999999975714e+02    1.312082642315140e-01
3.959999999975477e+02    1.333828982800827e-01
3.969999999975241e+02    1.386072585878010e-01
3.979999999975004e+02    1.492877689385632e-01
3.989999999974768e+02    1.664807791177588e-01
3.999999999974531e+02    1.887670913390470e-01
4.009999999974295e+02    2.116776861462719e-01
4.019999999974058e+02    2.286196668480096e-01
4.029999999973822e+02    2.335524458019074e-01
4.039999999973585e+02    2.235838834563536e-01
4.049999999973349e+02    1.994153191535736e-01
4.059999999973112e+02    1.640134037915307e-01
4.069999999972876e+02    1.211020376432136e-01
4.079999999972640e+02    7.423472063637962e-02
4.089999999972403e+02    2.638585471838840e-02
4.099999999972167e+02    -2.018065719248088e-02
4.109999999971930e+02    -6.393667292677568e-02
4.119999999971694e+02    -1.041019143284369e-01
4.129999999971457e+02    -1.406731510446713e-01
4.139999999971221e+02    -1.744226502620252e-01
4.149999999970984e+02    -2.067315308380830e-01
4.159999999970748e+02    -2.391217893950426e-01
4.169999999970511e+02    -2.725498402002413e-01
